#Steps Energy
0 11.2
100 -318.4
200 -594.4
300 -963.2
400 -1277.6
500 -1541.6
600 -1779.2
700 -1932
800 -2131.2
900 -2296.8
1000 -2417.6
1100 -2573.6
1200 -2657.6
1300 -2784.8
1400 -2909.6
1500 -3074.4
1600 -3190.4
1700 -3297.6
1800 -3421.6
1900 -3456.8
2000 -3582.4
2100 -3641.6
2200 -3753.6
2300 -3877.6
2400 -3968
2500 -4055.2
2600 -4156
2700 -4197.6
2800 -4260
2900 -4320
3000 -4363.2
3100 -4438.4
3200 -4483.2
3300 -4601.6
3400 -4644
3500 -4690.4
3600 -4780
3700 -4870.4
3800 -4944
3900 -5005.6
4000 -5036.8
4100 -5087.2
4200 -5144
4300 -5220
4400 -5279.2
4500 -5307.2
4600 -5360.8
4700 -5423.2
4800 -5484.8
4900 -5528
5000 -5544
5100 -5583.2
5200 -5610.4
5300 -5632.8
5400 -5672.8
5500 -5703.2
5600 -5792.8
5700 -5827.2
5800 -5838.4
5900 -5873.6
6000 -5913.6
6100 -5923.2
6200 -5927.2
6300 -5983.2
6400 -5999.2
6500 -5996
6600 -6001.6
6700 -6036
6800 -6138.4
6900 -6156.8
7000 -6209.6
7100 -6223.2
7200 -6241.6
7300 -6280
7400 -6272.8
7500 -6300
7600 -6308
7700 -6336
7800 -6365.6
7900 -6376
8000 -6376
8100 -6387.2
8200 -6444.8
8300 -6472
8400 -6520
8500 -6530.4
8600 -6559.2
8700 -6556.8
8800 -6546.4
8900 -6619.2
9000 -6627.2
9100 -6667.2
9200 -6691.2
9300 -6715.2
9400 -6712
9500 -6712
9600 -6728
9700 -6744
9800 -6757.6
9900 -6760
10000 -6757.6
10100 -6787.2
10200 -6789.6
10300 -6800.8
10400 -6822.4
10500 -6839.2
10600 -6860.8
10700 -6860.8
10800 -6896
10900 -6923.2
11000 -6923.2
11100 -6920.8
11200 -6940
11300 -6964
11400 -6964.8
11500 -6976
11600 -6979.2
11700 -7044
11800 -7070.4
11900 -7084
12000 -7097.6
12100 -7095.2
12200 -7108.8
12300 -7131.2
12400 -7146.4
12500 -7139.2
12600 -7149.6
12700 -7139.2
12800 -7160.8
12900 -7158.4
13000 -7184.8
13100 -7204
13200 -7220
13300 -7233.6
13400 -7241.6
13500 -7258.4
13600 -7279.2
13700 -7288
13800 -7296
13900 -7315.2
14000 -7336.8
14100 -7334.4
14200 -7361.6
14300 -7376
14400 -7379.2
14500 -7400.8
14600 -7392.8
14700 -7400.8
14800 -7398.4
14900 -7395.2
15000 -7408.8
15100 -7422.4
15200 -7444
15300 -7463.2
15400 -7460
15500 -7465.6
15600 -7481.6
15700 -7481.6
15800 -7503.2
15900 -7494.4
16000 -7489.6
16100 -7489.6
16200 -7516.8
16300 -7508.8
16400 -7524.8
16500 -7529.6
16600 -7524.8
16700 -7538.4
16800 -7540.8
16900 -7546.4
17000 -7544
17100 -7547.2
17200 -7547.2
17300 -7545.6
17400 -7551.2
17500 -7551.2
17600 -7551.2
17700 -7559.2
17800 -7559.2
17900 -7564.8
18000 -7562.4
18100 -7562.4
18200 -7572.8
18300 -7576
18400 -7576
18500 -7606.4
18600 -7620
18700 -7614.4
18800 -7622.4
18900 -7638.4
19000 -7644
19100 -7641.6
19200 -7657.6
19300 -7663.2
19400 -7666.4
19500 -7688.8
19600 -7688.8
19700 -7688.8
19800 -7724
19900 -7732
20000 -7753.6
20100 -7764
20200 -7769.6
20300 -7775.2
20400 -7780.8
20500 -7776
20600 -7781.6
20700 -7789.6
20800 -7795.2
20900 -7803.2
21000 -7811.2
21100 -7820
21200 -7822.4
21300 -7828
21400 -7833.6
21500 -7863.2
21600 -7860.8
21700 -7861.6
21800 -7861.6
21900 -7867.2
22000 -7875.2
22100 -7897.6
22200 -7900.8
22300 -7906.4
22400 -7915.2
22500 -7920
22600 -7936
22700 -7949.6
22800 -7960.8
22900 -7958.4
23000 -7952.8
23100 -7958.4
23200 -7958.4
23300 -7953.6
23400 -7953.6
23500 -7953.6
23600 -7953.6
23700 -7951.2
23800 -7956.8
23900 -7960
24000 -7986.4
24100 -7992
24200 -8011.2
24300 -8017.6
24400 -8014.4
24500 -8038.4
24600 -8052
24700 -8076
24800 -8084
24900 -8097.6
25000 -8108
25100 -8116
25200 -8116
25300 -8116
25400 -8118.4
25500 -8126.4
25600 -8132
25700 -8124.8
25800 -8136
25900 -8141.6
26000 -8139.2
26100 -8144.8
26200 -8142.4
26300 -8150.4
26400 -8152.8
26500 -8166.4
26600 -8180
26700 -8177.6
26800 -8177.6
26900 -8172
27000 -8167.2
27100 -8168
27200 -8168
27300 -8192
27400 -8194.4
27500 -8197.6
27600 -8197.6
27700 -8203.2
27800 -8200.8
27900 -8201.6
28000 -8220.8
28100 -8226.4
28200 -8226.4
28300 -8232
28400 -8267.2
28500 -8286.4
28600 -8286.4
28700 -8284
28800 -8289.6
28900 -8289.6
29000 -8295.2
29100 -8297.6
29200 -8297.6
29300 -8297.6
29400 -8305.6
29500 -8311.2
29600 -8332.8
29700 -8332.8
29800 -8328
29900 -8328
30000 -8336
30100 -8336
30200 -8349.6
30300 -8363.2
30400 -8363.2
30500 -8363.2
30600 -8379.2
30700 -8379.2
30800 -8379.2
30900 -8384.8
31000 -8398.4
31100 -8392.8
31200 -8392.8
31300 -8392.8
31400 -8404
31500 -8404
31600 -8404
31700 -8401.6
31800 -8428.8
31900 -8423.2
32000 -8447.2
32100 -8447.2
32200 -8441.6
32300 -8441.6
32400 -8447.2
32500 -8460.8
32600 -8460.8
32700 -8460.8
32800 -8460.8
32900 -8460.8
33000 -8466.4
33100 -8466.4
33200 -8466.4
33300 -8466.4
33400 -8466.4
33500 -8472
33600 -8472
33700 -8472
33800 -8472
33900 -8472
34000 -8472
34100 -8472
34200 -8493.6
34300 -8493.6
34400 -8493.6
34500 -8493.6
34600 -8496
34700 -8496
34800 -8496
34900 -8493.6
35000 -8493.6
35100 -8493.6
35200 -8493.6
35300 -8493.6
35400 -8493.6
35500 -8493.6
35600 -8493.6
35700 -8493.6
35800 -8504.8
35900 -8504.8
36000 -8504.8
36100 -8504.8
36200 -8504.8
36300 -8504.8
36400 -8504.8
36500 -8504.8
36600 -8504.8
36700 -8504.8
36800 -8504.8
36900 -8504.8
37000 -8504.8
37100 -8504.8
37200 -8504.8
37300 -8504.8
37400 -8507.2
37500 -8507.2
37600 -8507.2
37700 -8507.2
37800 -8507.2
37900 -8507.2
38000 -8512.8
38100 -8510.4
38200 -8510.4
38300 -8504.8
38400 -8504.8
38500 -8504.8
38600 -8504.8
38700 -8504.8
38800 -8504.8
38900 -8504.8
39000 -8518.4
39100 -8518.4
39200 -8518.4
39300 -8518.4
39400 -8512.8
39500 -8512.8
39600 -8512.8
39700 -8512.8
39800 -8512.8
39900 -8512.8
40000 -8512.8
40100 -8507.2
40200 -8507.2
40300 -8512.8
40400 -8512.8
40500 -8512.8
40600 -8512.8
40700 -8512.8
40800 -8512.8
40900 -8512.8
41000 -8512.8
41100 -8518.4
41200 -8518.4
41300 -8518.4
41400 -8512.8
41500 -8512.8
41600 -8512.8
41700 -8518.4
41800 -8518.4
41900 -8518.4
42000 -8518.4
42100 -8518.4
42200 -8518.4
42300 -8518.4
42400 -8518.4
42500 -8518.4
42600 -8518.4
42700 -8518.4
42800 -8518.4
42900 -8518.4
43000 -8524
43100 -8524
43200 -8529.6
43300 -8529.6
43400 -8529.6
43500 -8529.6
43600 -8529.6
43700 -8529.6
43800 -8529.6
43900 -8529.6
44000 -8529.6
44100 -8524
44200 -8524
44300 -8524
44400 -8524
44500 -8524
44600 -8524
44700 -8524
44800 -8524
44900 -8524
45000 -8524
45100 -8524
45200 -8524
45300 -8524
45400 -8512.8
45500 -8512.8
45600 -8518.4
45700 -8518.4
45800 -8518.4
45900 -8529.6
46000 -8535.2
46100 -8535.2
46200 -8535.2
46300 -8535.2
46400 -8535.2
46500 -8529.6
46600 -8529.6
46700 -8529.6
46800 -8529.6
46900 -8529.6
47000 -8524
47100 -8524
47200 -8524
47300 -8524
47400 -8524
47500 -8524
47600 -8524
47700 -8529.6
47800 -8529.6
47900 -8529.6
48000 -8529.6
48100 -8529.6
48200 -8524
48300 -8524
48400 -8524
48500 -8529.6
48600 -8529.6
48700 -8529.6
48800 -8529.6
48900 -8529.6
49000 -8529.6
49100 -8529.6
49200 -8535.2
49300 -8535.2
49400 -8535.2
49500 -8535.2
49600 -8535.2
49700 -8535.2
49800 -8535.2
49900 -8529.6
50000 -8529.6
50100 -8529.6
50200 -8529.6
50300 -8529.6
50400 -8529.6
50500 -8529.6
50600 -8529.6
50700 -8529.6
50800 -8529.6
50900 -8529.6
51000 -8529.6
51100 -8524
51200 -8524
51300 -8524
51400 -8524
51500 -8524
51600 -8524
51700 -8524
51800 -8524
51900 -8524
52000 -8524
52100 -8524
52200 -8524
52300 -8524
52400 -8524
52500 -8518.4
52600 -8518.4
52700 -8518.4
52800 -8518.4
52900 -8512.8
53000 -8512.8
53100 -8512.8
53200 -8512.8
53300 -8512.8
53400 -8512.8
53500 -8518.4
53600 -8518.4
53700 -8518.4
53800 -8518.4
53900 -8518.4
54000 -8518.4
54100 -8518.4
54200 -8518.4
54300 -8524
54400 -8529.6
54500 -8529.6
54600 -8529.6
54700 -8529.6
54800 -8529.6
54900 -8529.6
55000 -8529.6
55100 -8529.6
55200 -8529.6
55300 -8529.6
55400 -8529.6
55500 -8529.6
55600 -8529.6
55700 -8529.6
55800 -8529.6
55900 -8529.6
56000 -8529.6
56100 -8529.6
56200 -8529.6
56300 -8529.6
56400 -8524
56500 -8529.6
56600 -8529.6
56700 -8535.2
56800 -8535.2
56900 -8535.2
57000 -8535.2
57100 -8535.2
57200 -8535.2
57300 -8540.8
57400 -8540.8
57500 -8540.8
57600 -8535.2
57700 -8535.2
57800 -8535.2
57900 -8535.2
58000 -8529.6
58100 -8537.6
58200 -8532
58300 -8532
58400 -8543.2
58500 -8543.2
58600 -8543.2
58700 -8543.2
58800 -8543.2
58900 -8543.2
59000 -8543.2
59100 -8543.2
59200 -8543.2
59300 -8543.2
59400 -8543.2
59500 -8537.6
59600 -8543.2
59700 -8543.2
59800 -8543.2
59900 -8543.2
60000 -8543.2
60100 -8543.2
60200 -8543.2
60300 -8543.2
60400 -8543.2
60500 -8543.2
60600 -8543.2
60700 -8537.6
60800 -8537.6
60900 -8537.6
61000 -8537.6
61100 -8537.6
61200 -8537.6
61300 -8537.6
61400 -8532
61500 -8532
61600 -8532
61700 -8532
61800 -8532
61900 -8532
62000 -8532
62100 -8532
62200 -8537.6
62300 -8537.6
62400 -8537.6
62500 -8537.6
62600 -8532
62700 -8526.4
62800 -8526.4
62900 -8526.4
63000 -8526.4
63100 -8532
63200 -8532
63300 -8532
63400 -8526.4
63500 -8526.4
63600 -8520.8
63700 -8520.8
63800 -8520.8
63900 -8518.4
64000 -8524
64100 -8524
64200 -8524
64300 -8524
64400 -8524
64500 -8518.4
64600 -8518.4
64700 -8524
64800 -8524
64900 -8524
65000 -8518.4
65100 -8532
65200 -8526.4
65300 -8526.4
65400 -8526.4
65500 -8526.4
65600 -8526.4
65700 -8526.4
65800 -8526.4
65900 -8526.4
66000 -8526.4
66100 -8526.4
66200 -8526.4
66300 -8526.4
66400 -8526.4
66500 -8532
66600 -8532
66700 -8532
66800 -8532
66900 -8532
67000 -8540
67100 -8545.6
67200 -8545.6
67300 -8545.6
67400 -8540
67500 -8540
67600 -8540
67700 -8545.6
67800 -8545.6
67900 -8540
68000 -8545.6
68100 -8545.6
68200 -8545.6
68300 -8551.2
68400 -8551.2
68500 -8551.2
68600 -8551.2
68700 -8551.2
68800 -8551.2
68900 -8551.2
69000 -8551.2
69100 -8551.2
69200 -8551.2
69300 -8551.2
69400 -8551.2
69500 -8551.2
69600 -8551.2
69700 -8551.2
69800 -8545.6
69900 -8551.2
70000 -8551.2
70100 -8551.2
70200 -8551.2
70300 -8551.2
70400 -8551.2
70500 -8551.2
70600 -8545.6
70700 -8545.6
70800 -8545.6
70900 -8540
71000 -8540
71100 -8540
71200 -8540
71300 -8540
71400 -8545.6
71500 -8545.6
71600 -8545.6
71700 -8545.6
71800 -8545.6
71900 -8545.6
72000 -8545.6
72100 -8540
72200 -8540
72300 -8540
72400 -8545.6
72500 -8545.6
72600 -8545.6
72700 -8545.6
72800 -8545.6
72900 -8545.6
73000 -8545.6
73100 -8545.6
73200 -8545.6
73300 -8545.6
73400 -8545.6
73500 -8545.6
73600 -8540
73700 -8540
73800 -8540
73900 -8540
74000 -8540
74100 -8534.4
74200 -8528.8
74300 -8528.8
74400 -8528.8
74500 -8534.4
74600 -8534.4
74700 -8528.8
74800 -8528.8
74900 -8534.4
75000 -8534.4
75100 -8528.8
75200 -8528.8
75300 -8528.8
75400 -8534.4
75500 -8534.4
75600 -8534.4
75700 -8534.4
75800 -8534.4
75900 -8534.4
76000 -8540
76100 -8540
76200 -8540
76300 -8540
76400 -8540
76500 -8540
76600 -8540
76700 -8540
76800 -8540
76900 -8540
77000 -8545.6
77100 -8545.6
77200 -8545.6
77300 -8545.6
77400 -8545.6
77500 -8545.6
77600 -8545.6
77700 -8545.6
77800 -8540
77900 -8540
78000 -8534.4
78100 -8534.4
78200 -8534.4
78300 -8534.4
78400 -8534.4
78500 -8534.4
78600 -8528.8
78700 -8534.4
78800 -8534.4
78900 -8534.4
79000 -8534.4
79100 -8534.4
79200 -8534.4
79300 -8528.8
79400 -8528.8
79500 -8534.4
79600 -8534.4
79700 -8534.4
79800 -8534.4
79900 -8528.8
80000 -8534.4
80100 -8534.4
80200 -8534.4
80300 -8534.4
80400 -8534.4
80500 -8540
80600 -8540
80700 -8540
80800 -8540
80900 -8545.6
81000 -8545.6
81100 -8540
81200 -8540
81300 -8540
81400 -8540
81500 -8540
81600 -8540
81700 -8545.6
81800 -8545.6
81900 -8545.6
82000 -8545.6
82100 -8545.6
82200 -8545.6
82300 -8545.6
82400 -8545.6
82500 -8545.6
82600 -8545.6
82700 -8545.6
82800 -8545.6
82900 -8545.6
83000 -8545.6
83100 -8545.6
83200 -8545.6
83300 -8545.6
83400 -8545.6
83500 -8545.6
83600 -8545.6
83700 -8551.2
83800 -8551.2
83900 -8545.6
84000 -8545.6
84100 -8545.6
84200 -8545.6
84300 -8545.6
84400 -8545.6
84500 -8545.6
84600 -8545.6
84700 -8545.6
84800 -8545.6
84900 -8545.6
85000 -8545.6
85100 -8545.6
85200 -8545.6
85300 -8545.6
85400 -8545.6
85500 -8545.6
85600 -8545.6
85700 -8545.6
85800 -8545.6
85900 -8545.6
86000 -8545.6
86100 -8545.6
86200 -8545.6
86300 -8545.6
86400 -8540
86500 -8540
86600 -8545.6
86700 -8545.6
86800 -8545.6
86900 -8545.6
87000 -8545.6
87100 -8545.6
87200 -8545.6
87300 -8545.6
87400 -8540
87500 -8540
87600 -8540
87700 -8540
87800 -8540
87900 -8540
88000 -8540
88100 -8540
88200 -8534.4
88300 -8528.8
88400 -8528.8
88500 -8528.8
88600 -8528.8
88700 -8528.8
88800 -8528.8
88900 -8528.8
89000 -8528.8
89100 -8528.8
89200 -8528.8
89300 -8528.8
89400 -8528.8
89500 -8528.8
89600 -8528.8
89700 -8528.8
89800 -8528.8
89900 -8528.8
90000 -8528.8
90100 -8528.8
90200 -8528.8
90300 -8528.8
90400 -8526.4
90500 -8526.4
90600 -8526.4
90700 -8526.4
90800 -8540
90900 -8540
91000 -8540
91100 -8540
91200 -8540
91300 -8545.6
91400 -8545.6
91500 -8545.6
91600 -8545.6
91700 -8545.6
91800 -8545.6
91900 -8540
92000 -8540
92100 -8540
92200 -8540
92300 -8540
92400 -8540
92500 -8540
92600 -8540
92700 -8534.4
92800 -8534.4
92900 -8528.8
93000 -8528.8
93100 -8528.8
93200 -8528.8
93300 -8528.8
93400 -8534.4
93500 -8534.4
93600 -8534.4
93700 -8534.4
93800 -8534.4
93900 -8534.4
94000 -8534.4
94100 -8534.4
94200 -8534.4
94300 -8534.4
94400 -8523.2
94500 -8523.2
94600 -8523.2
94700 -8523.2
94800 -8523.2
94900 -8523.2
95000 -8523.2
95100 -8523.2
95200 -8523.2
95300 -8528.8
95400 -8528.8
95500 -8528.8
95600 -8528.8
95700 -8528.8
95800 -8523.2
95900 -8523.2
96000 -8523.2
96100 -8523.2
96200 -8523.2
96300 -8523.2
96400 -8528.8
96500 -8534.4
96600 -8534.4
96700 -8534.4
96800 -8534.4
96900 -8534.4
97000 -8534.4
97100 -8534.4
97200 -8534.4
97300 -8534.4
97400 -8534.4
97500 -8534.4
97600 -8534.4
97700 -8528.8
97800 -8528.8
97900 -8528.8
98000 -8528.8
98100 -8528.8
98200 -8528.8
98300 -8528.8
98400 -8528.8
98500 -8523.2
98600 -8523.2
98700 -8523.2
98800 -8523.2
98900 -8523.2
99000 -8523.2
99100 -8523.2
99200 -8523.2
99300 -8523.2
99400 -8523.2
99500 -8523.2
99600 -8523.2
99700 -8523.2
99800 -8523.2
99900 -8523.2
100000 -8528.8
100100 -8534.4
100200 -8528.8
100300 -8534.4
100400 -8534.4
100500 -8534.4
100600 -8534.4
100700 -8534.4
100800 -8534.4
100900 -8534.4
101000 -8540
101100 -8540
101200 -8540
101300 -8540
101400 -8540
101500 -8540
101600 -8540
101700 -8540
101800 -8540
101900 -8540
102000 -8540
102100 -8540
102200 -8540
102300 -8540
102400 -8540
102500 -8540
102600 -8540
102700 -8534.4
102800 -8540
102900 -8540
103000 -8534.4
103100 -8523.2
103200 -8523.2
103300 -8523.2
103400 -8523.2
103500 -8523.2
103600 -8523.2
103700 -8523.2
103800 -8528.8
103900 -8528.8
104000 -8528.8
104100 -8534.4
104200 -8534.4
104300 -8534.4
104400 -8534.4
104500 -8534.4
104600 -8540
104700 -8540
104800 -8540
104900 -8540
105000 -8540
105100 -8540
105200 -8540
105300 -8540
105400 -8545.6
105500 -8545.6
105600 -8545.6
105700 -8545.6
105800 -8545.6
105900 -8545.6
106000 -8545.6
106100 -8545.6
106200 -8545.6
106300 -8545.6
106400 -8545.6
106500 -8545.6
106600 -8551.2
106700 -8551.2
106800 -8551.2
106900 -8551.2
107000 -8551.2
107100 -8545.6
107200 -8545.6
107300 -8545.6
107400 -8545.6
107500 -8545.6
107600 -8545.6
107700 -8545.6
107800 -8545.6
107900 -8545.6
108000 -8545.6
108100 -8551.2
108200 -8551.2
108300 -8551.2
108400 -8551.2
108500 -8551.2
108600 -8551.2
108700 -8551.2
108800 -8551.2
108900 -8551.2
109000 -8540
109100 -8540
109200 -8540
109300 -8540
109400 -8540
109500 -8540
109600 -8540
109700 -8540
109800 -8540
109900 -8545.6
110000 -8545.6
110100 -8545.6
110200 -8540
110300 -8540
110400 -8540
110500 -8540
110600 -8540
110700 -8540
110800 -8540
110900 -8540
111000 -8540
111100 -8540
111200 -8540
111300 -8540
111400 -8540
111500 -8540
111600 -8540
111700 -8540
111800 -8534.4
111900 -8528.8
112000 -8528.8
112100 -8523.2
112200 -8523.2
112300 -8523.2
112400 -8523.2
112500 -8523.2
112600 -8523.2
112700 -8523.2
112800 -8523.2
112900 -8523.2
113000 -8523.2
113100 -8517.6
113200 -8517.6
113300 -8517.6
113400 -8523.2
113500 -8528.8
113600 -8528.8
113700 -8528.8
113800 -8528.8
113900 -8528.8
114000 -8528.8
114100 -8528.8
114200 -8528.8
114300 -8528.8
114400 -8528.8
114500 -8528.8
114600 -8528.8
114700 -8528.8
114800 -8528.8
114900 -8528.8
115000 -8528.8
115100 -8528.8
115200 -8528.8
115300 -8540
115400 -8540
115500 -8540
115600 -8540
115700 -8540
115800 -8534.4
115900 -8534.4
116000 -8534.4
116100 -8534.4
116200 -8534.4
116300 -8534.4
116400 -8534.4
116500 -8540
116600 -8540
116700 -8540
116800 -8540
116900 -8540
117000 -8534.4
117100 -8534.4
117200 -8534.4
117300 -8534.4
117400 -8534.4
117500 -8534.4
117600 -8534.4
117700 -8534.4
117800 -8534.4
117900 -8534.4
118000 -8534.4
118100 -8534.4
118200 -8534.4
118300 -8534.4
118400 -8534.4
118500 -8534.4
118600 -8540
118700 -8540
118800 -8540
118900 -8540
119000 -8540
119100 -8540
119200 -8540
119300 -8545.6
119400 -8545.6
119500 -8540
119600 -8540
119700 -8540
119800 -8534.4
119900 -8534.4
120000 -8534.4
120100 -8534.4
120200 -8534.4
120300 -8540
120400 -8534.4
120500 -8534.4
120600 -8534.4
120700 -8534.4
120800 -8534.4
120900 -8534.4
121000 -8534.4
121100 -8534.4
121200 -8534.4
121300 -8534.4
121400 -8534.4
121500 -8534.4
121600 -8534.4
121700 -8528.8
121800 -8523.2
121900 -8523.2
122000 -8523.2
122100 -8523.2
122200 -8523.2
122300 -8523.2
122400 -8528.8
122500 -8528.8
122600 -8528.8
122700 -8528.8
122800 -8528.8
122900 -8523.2
123000 -8523.2
123100 -8523.2
123200 -8523.2
123300 -8523.2
123400 -8523.2
123500 -8523.2
123600 -8528.8
123700 -8523.2
123800 -8523.2
123900 -8523.2
124000 -8523.2
124100 -8517.6
124200 -8517.6
124300 -8517.6
124400 -8517.6
124500 -8517.6
124600 -8517.6
124700 -8517.6
124800 -8517.6
124900 -8517.6
125000 -8517.6
125100 -8517.6
125200 -8517.6
125300 -8523.2
125400 -8523.2
125500 -8523.2
125600 -8523.2
125700 -8528.8
125800 -8528.8
125900 -8528.8
126000 -8528.8
126100 -8534.4
126200 -8536.8
126300 -8534.4
126400 -8534.4
126500 -8534.4
126600 -8534.4
126700 -8534.4
126800 -8534.4
126900 -8534.4
127000 -8542.4
127100 -8542.4
127200 -8548
127300 -8548
127400 -8556
127500 -8556
127600 -8556
127700 -8556
127800 -8556
127900 -8558.4
128000 -8558.4
128100 -8572
128200 -8572
128300 -8566.4
128400 -8566.4
128500 -8566.4
128600 -8572
128700 -8572
128800 -8572
128900 -8572
129000 -8572
129100 -8572
129200 -8572
129300 -8572
129400 -8572
129500 -8560.8
129600 -8566.4
129700 -8580
129800 -8580
129900 -8580
130000 -8580
130100 -8580
130200 -8580
130300 -8580
130400 -8580
130500 -8580
130600 -8580
130700 -8580
130800 -8580
130900 -8580
131000 -8580
131100 -8580
131200 -8580
131300 -8580
131400 -8580
131500 -8580
131600 -8580
131700 -8580
131800 -8580
131900 -8580
132000 -8574.4
132100 -8585.6
132200 -8585.6
132300 -8585.6
132400 -8585.6
132500 -8580
132600 -8580
132700 -8585.6
132800 -8585.6
132900 -8585.6
133000 -8585.6
133100 -8585.6
133200 -8585.6
133300 -8585.6
133400 -8585.6
133500 -8585.6
133600 -8585.6
133700 -8585.6
133800 -8585.6
133900 -8585.6
134000 -8585.6
134100 -8585.6
134200 -8585.6
134300 -8585.6
134400 -8585.6
134500 -8574.4
134600 -8574.4
134700 -8574.4
134800 -8574.4
134900 -8574.4
135000 -8574.4
135100 -8574.4
135200 -8574.4
135300 -8574.4
135400 -8574.4
135500 -8574.4
135600 -8574.4
135700 -8593.6
135800 -8593.6
135900 -8593.6
136000 -8593.6
136100 -8593.6
136200 -8593.6
136300 -8593.6
136400 -8593.6
136500 -8593.6
136600 -8593.6
136700 -8593.6
136800 -8593.6
136900 -8593.6
137000 -8593.6
137100 -8593.6
137200 -8593.6
137300 -8593.6
137400 -8588
137500 -8588
137600 -8588
137700 -8588
137800 -8588
137900 -8588
138000 -8588
138100 -8588
138200 -8588
138300 -8588
138400 -8588
138500 -8588
138600 -8588
138700 -8588
138800 -8576.8
138900 -8582.4
139000 -8582.4
139100 -8582.4
139200 -8582.4
139300 -8576.8
139400 -8576.8
139500 -8576.8
139600 -8576.8
139700 -8576.8
139800 -8576.8
139900 -8576.8
140000 -8576.8
140100 -8582.4
140200 -8582.4
140300 -8582.4
140400 -8582.4
140500 -8582.4
140600 -8588
140700 -8588
140800 -8588
140900 -8588
141000 -8588
141100 -8588
141200 -8582.4
141300 -8582.4
141400 -8582.4
141500 -8582.4
141600 -8582.4
141700 -8582.4
141800 -8582.4
141900 -8582.4
142000 -8582.4
142100 -8582.4
142200 -8582.4
142300 -8582.4
142400 -8582.4
142500 -8582.4
142600 -8582.4
142700 -8582.4
142800 -8582.4
142900 -8582.4
143000 -8582.4
143100 -8582.4
143200 -8588
143300 -8588
143400 -8588
143500 -8593.6
143600 -8593.6
143700 -8593.6
143800 -8593.6
143900 -8593.6
144000 -8593.6
144100 -8593.6
144200 -8593.6
144300 -8593.6
144400 -8593.6
144500 -8593.6
144600 -8593.6
144700 -8593.6
144800 -8593.6
144900 -8593.6
145000 -8593.6
145100 -8593.6
145200 -8593.6
145300 -8593.6
